Time,evapo temperature,evapo relative humidity,compressor power
0.000000000000000000e+00,1.551833071991340063e+01,4.865394006378829772e+01,4.586142086750840008e+02
2.500000000000009992e-01,1.607573893475089832e+01,5.018973403766050012e+01,6.058110729593370252e+02
5.000000000000009992e-01,1.660178693990290100e+01,4.996385176802679950e+01,6.664245650059369837e+02
7.500000000000019984e-01,1.711920582319390149e+01,4.906659968822420126e+01,6.825577726822730256e+02
1.000000000000000000e+00,1.758071069702180012e+01,4.757626620008029761e+01,6.655700353497560400e+02
1.250000000000000000e+00,1.794749735263989976e+01,4.581013427490950107e+01,6.429017747160099816e+02
1.500000000000000000e+00,1.820957931326499946e+01,4.409909765553459948e+01,6.235864591619570092e+02
1.750000000000000000e+00,1.853742619524890145e+01,4.255411710657089941e+01,6.097750652996270446e+02
2.000000000000000000e+00,1.878813904442520055e+01,4.125926044759930278e+01,6.024271211398439618e+02
2.250000000000000000e+00,1.896990253170089957e+01,4.026134342959689860e+01,6.000562526871119644e+02
2.500000000000000000e+00,1.909910085368230170e+01,3.952539790004990294e+01,6.019083002092470451e+02
2.750000000000010214e+00,1.918834164389830121e+01,3.899993483853359777e+01,6.071531952825299641e+02
3.000000000000010214e+00,1.924719067863010125e+01,3.864146231928800290e+01,6.148162710820760140e+02
3.250000000000010214e+00,1.928290470870129880e+01,3.841366456824309950e+01,6.239456243167840057e+02
3.500000000000010214e+00,1.930096391142560108e+01,3.828667559402320109e+01,6.337057001910039844e+02
3.750000000000010214e+00,1.930549288695100074e+01,3.823634548831410029e+01,6.434193291199400164e+02
4.000000000000009770e+00,1.929958745935109832e+01,3.824350816085200222e+01,6.525772271154679629e+02
4.250000000000009770e+00,1.928556468872680085e+01,3.829326669548090223e+01,6.608282373122440276e+02
4.500000000000009770e+00,1.926515250105079957e+01,3.837431234500299837e+01,6.679593001063260544e+02
4.750000000000009770e+00,1.923963309849330017e+01,3.847829070438650234e+01,6.738710555436759932e+02
5.000000000000009770e+00,1.920995165400620053e+01,3.859922519943920349e+01,6.785528099808260549e+02
5.250000000000009770e+00,1.917679921781979857e+01,3.873300442926480258e+01,6.820590963522729453e+02
5.500000000000009770e+00,1.914067652071850034e+01,3.887693650282120217e+01,6.844890355055449618e+02
5.750000000000009770e+00,1.910194354092960012e+01,3.902937052686949926e+01,6.859690254529209597e+02
6.000000000000020428e+00,1.906085830625080035e+01,3.918938294082000340e+01,6.866388450873090505e+02
6.250000000000020428e+00,1.901760738061500078e+01,3.935652449085460347e+01,6.866409868371290486e+02
6.500000000000020428e+00,1.897232976551769923e+01,3.953062228205070028e+01,6.861128776161009455e+02
6.750000000000020428e+00,1.892622588566180042e+01,3.970689836944060147e+01,6.852679920748309996e+02
7.000000000000020428e+00,1.887931358755150058e+01,3.988566206137989667e+01,6.842136185461439482e+02
7.250000000000020428e+00,1.883055211766199832e+01,4.007174489471879753e+01,6.829582022110030266e+02
7.500000000000020428e+00,1.878004068984860098e+01,4.026494754495160322e+01,6.815845807054159877e+02
7.750000000000020428e+00,1.872788654441540146e+01,4.046495141038879950e+01,6.801603638166329802e+02
8.000000000000019540e+00,1.867420750932900120e+01,4.067131455386650174e+01,6.787390009422499588e+02
8.250000000000019540e+00,1.861913288834060154e+01,4.088347974333689905e+01,6.773612256086839807e+02
8.500000000000019540e+00,1.856280305959829846e+01,4.110079055763709732e+01,6.760566945172330406e+02
8.750000000000019540e+00,1.850536812657560048e+01,4.132251225839640085e+01,6.748456827785270207e+02
9.000000000000019540e+00,1.844698690332959856e+01,4.155038439991169952e+01,6.736892336017709795e+02
9.250000000000019540e+00,1.838787884666909989e+01,4.178904993015459723e+01,6.724639487605170416e+02
9.500000000000019540e+00,1.832838738091119879e+01,4.203415759046509947e+01,6.711840170337719655e+02
9.750000000000019540e+00,1.826881263652829901e+01,4.228223803493450106e+01,6.698655463012520386e+02
1.000000000000000000e+01,1.820943203770060137e+01,4.253051870187489669e+01,6.685245702618849464e+02
1.025000000000000000e+01,1.815049984896770141e+01,4.277679282568570329e+01,6.671763697391120331e+02
1.050000000000000000e+01,1.809224627543850161e+01,4.301931567762090225e+01,6.658350705086299968e+02
1.075000000000000000e+01,1.803487679903030028e+01,4.325672135309120137e+01,6.645134028736009668e+02
1.100000000000000000e+01,1.797857193920490104e+01,4.348795550893139961e+01,6.632225673647429858e+02
1.125000000000000000e+01,1.792038202223779919e+01,4.372229540190890162e+01,6.622549081862420053e+02
1.150000000000000000e+01,1.785302367091840026e+01,4.398400474608649802e+01,6.622775534077179600e+02
1.175000000000000000e+01,1.777280045361600003e+01,4.428734035150139903e+01,6.635765595800289702e+02
1.200000000000000000e+01,1.767849595859620138e+01,4.463844718606070217e+01,6.661532121299100027e+02
1.225000000000000000e+01,1.756805860639990158e+01,4.503315651829039723e+01,6.689021074254329733e+02
1.250000000000000000e+01,1.745058838542230006e+01,4.541875497688749874e+01,6.621007956128280512e+02
1.275000000000000000e+01,1.730551689759629852e+01,4.590964723091170185e+01,6.630095458210339530e+02
1.300000000000000000e+01,1.712834917969280113e+01,4.654221191446939798e+01,6.772608265270899892e+02
1.325000000000000000e+01,1.692348131348089879e+01,4.730024353804350312e+01,7.028291910320040188e+02
1.350000000000000000e+01,1.669186308076620051e+01,4.817954545750730233e+01,7.369747518484920192e+02
1.375000000000000000e+01,1.643903412579109968e+01,4.914765549757719754e+01,7.777939700226189643e+02
1.400000000000000000e+01,1.616988410205360083e+01,5.018149228016829966e+01,8.236746578745010083e+02
1.425000000000000000e+01,1.588867510019970020e+01,5.125999181755030065e+01,8.731503159207110230e+02
1.450000000000000000e+01,1.559907045172059981e+01,5.236365392126899820e+01,9.249241541405440330e+02
1.475000000000000000e+01,1.530412427183619961e+01,5.347531742758130235e+01,9.778944218168660427e+02
1.500000000000000000e+01,1.500625624735219965e+01,5.458062147302899803e+01,1.031147575136770001e+03
1.525000000000000000e+01,1.472719988184149997e+01,5.564439692056220110e+01,1.081042725904720101e+03
1.550000000000000000e+01,1.446692888133480004e+01,5.660044305422110256e+01,1.120712770850499965e+03
1.575000000000000000e+01,1.422683497782299966e+01,5.743190558788769806e+01,1.147031147588659906e+03
1.600000000000000000e+01,1.400737964190330054e+01,5.812685170805089996e+01,1.160221448677450098e+03
1.625000000000000000e+01,1.380847110116200049e+01,5.868086939450410000e+01,1.161968408247420030e+03
1.650000000000000000e+01,1.362847076611650010e+01,5.910287366552319810e+01,1.154404848803249934e+03
1.675000000000000000e+01,1.346477462280340021e+01,5.941052454533929961e+01,1.139735848084610097e+03
1.700000000000000000e+01,1.331409513775230025e+01,5.962670236063480189e+01,1.120015337782449933e+03
1.725000000000000000e+01,1.317268032102760067e+01,5.977682736754930204e+01,1.097023679678349936e+03
1.750000000000000000e+01,1.303650354081879925e+01,5.988678886210850294e+01,1.072202918546010096e+03
1.775000000000000000e+01,1.290760714825420052e+01,5.994925932346789921e+01,1.046828795507869927e+03
1.800000000000000000e+01,1.277752645957949973e+01,6.001144794099450053e+01,1.021623393390109982e+03
1.825000000000000000e+01,1.264171322462850000e+01,6.009894145414300226e+01,9.971523506899010272e+02
1.850000000000000000e+01,1.249727673878780010e+01,6.022780439498310301e+01,9.738036623812209882e+02
1.875000000000000000e+01,1.234187210244060040e+01,6.041064938851290123e+01,9.517974052288210487e+02
1.900000000000000000e+01,1.217373632439189990e+01,6.065663584667260011e+01,9.312230506438670545e+02
1.925000000000000000e+01,1.200195652573239968e+01,6.094943486196859794e+01,9.117070750899270024e+02
1.950000000000000000e+01,1.183781538499760089e+01,6.125973796965929807e+01,8.929411034598649621e+02
1.975000000000000000e+01,1.168258017397629978e+01,6.157468781056780216e+01,8.750352018798149629e+02
2.000000000000000000e+01,1.153453586279939991e+01,6.190052106180859681e+01,8.581525507667720376e+02
2.025000000000000000e+01,1.139314829206259994e+01,6.223314307689010150e+01,8.415994942351150030e+02
2.050000000000000000e+01,1.125852288446940008e+01,6.256793811678529948e+01,8.252763114018330270e+02
2.075000000000000000e+01,1.113530186187620075e+01,6.289442042650740206e+01,8.089352589380449672e+02
2.100000000000000000e+01,1.102712646810119956e+01,6.320236667228589766e+01,7.923820062401199493e+02
2.125000000000000000e+01,1.095028673794189977e+01,6.345188953483499716e+01,7.747406219488309489e+02
2.150000000000000000e+01,1.090292302122609946e+01,6.364684736066740101e+01,7.568792477501730218e+02
2.175000000000000000e+01,1.087084497689670037e+01,6.380362925546550201e+01,7.403990576968329833e+02
2.200000000000000000e+01,1.086999881456200079e+01,6.389095300981229997e+01,7.256759106780109505e+02
2.225000000000000000e+01,1.087579785323979920e+01,6.395960962178040177e+01,7.112176647863790322e+02
2.250000000000000000e+01,1.088677481614760012e+01,6.401177389681879504e+01,6.971200908794370434e+02
2.275000000000000000e+01,1.090508633520090065e+01,6.403447387511309330e+01,6.842584706300100379e+02
2.300000000000000000e+01,1.092853086741789959e+01,6.403703502414130355e+01,6.722801936960750027e+02
2.325000000000000000e+01,1.095789756579299912e+01,6.401336743752159464e+01,6.593800959982910399e+02
2.350000000000000000e+01,1.100060869110619954e+01,6.392741266965420266e+01,6.422309713812519476e+02
2.375000000000000000e+01,1.105704056391619972e+01,6.376638436572770274e+01,6.209766332903750481e+02
2.400000000000000000e+01,1.113062734108389940e+01,6.352789474618529653e+01,5.978316817933490483e+02
2.425000000000000000e+01,1.122019735106730032e+01,6.321512090599919986e+01,5.732346992408630513e+02
2.450000000000000000e+01,1.132400981679420049e+01,6.283496589376770203e+01,5.476812946900090537e+02
2.475000000000000000e+01,1.144110791873990074e+01,6.239233940897860009e+01,5.218074896646049865e+02
2.500000000000000000e+01,1.165198526732100071e+01,6.143806223884649853e+01,4.575714802648579962e+02
2.525000000000000000e+01,1.186127553524059941e+01,6.049198668782049992e+01,4.127363971137950216e+02
2.550000000000000000e+01,1.206987581498139939e+01,5.958996575304980325e+01,3.801723542600029759e+02
2.575000000000000000e+01,1.227351628124820060e+01,5.875848090283830061e+01,3.545533759186409952e+02
2.600000000000000000e+01,1.245399941878389960e+01,5.813622384101100238e+01,3.383456867030370177e+02
2.625000000000000000e+01,1.261351060437650062e+01,5.767434447500630057e+01,3.264980706118150238e+02
2.650000000000000000e+01,1.275565973469550052e+01,5.734757608340880353e+01,3.172744696278940069e+02
2.675000000000000000e+01,1.288306490618350075e+01,5.715066495419510062e+01,3.100776947165750244e+02
2.700000000000000000e+01,1.299135328066270034e+01,5.707762367830910222e+01,3.065672576597390275e+02
2.725000000000000000e+01,1.308413538956500055e+01,5.709368279101150279e+01,3.055863608452060021e+02
2.750000000000000000e+01,1.316852210884199970e+01,5.716140925997500233e+01,3.063786816262140178e+02
2.775000000000000000e+01,1.324597467905829973e+01,5.724780027137899907e+01,3.084952179329209798e+02
2.800000000000000000e+01,1.332409762440530088e+01,5.732857454344959791e+01,3.158544097762419938e+02
2.825000000000000000e+01,1.339810209485490056e+01,5.735663986502890310e+01,3.244982875034419862e+02
2.850000000000000000e+01,1.346548375054110025e+01,5.735845076859239811e+01,3.335168673595550217e+02
2.875000000000000000e+01,1.353313453047950077e+01,5.731893958675220091e+01,3.422219615237759740e+02
2.900000000000000000e+01,1.360039885602109955e+01,5.723533999591810328e+01,3.547877347414740257e+02
2.925000000000000000e+01,1.367531536146650062e+01,5.707928342486110296e+01,3.661662831471829804e+02
2.950000000000000000e+01,1.375557358269409924e+01,5.686749708971510131e+01,3.758500928231990201e+02
2.975000000000000000e+01,1.383676989220569986e+01,5.661344645359550043e+01,3.843069750194659946e+02
3.000000000000000000e+01,1.391357245410119958e+01,5.633260810276289732e+01,3.920371432012909736e+02
3.025000000000000000e+01,1.398370434483100055e+01,5.594964390505670337e+01,3.984527514042019902e+02
3.050000000000000000e+01,1.404824821085209940e+01,5.548450622357219686e+01,4.035337624889049835e+02
3.075000000000000000e+01,1.411108908740919965e+01,5.493048641430780066e+01,4.073874481713800151e+02
3.100000000000000000e+01,1.417211239558550062e+01,5.428128073938910347e+01,4.110257361374809761e+02
3.125000000000000000e+01,1.423041663119959921e+01,5.355469307539409840e+01,4.138288172505539819e+02
3.150000000000000000e+01,1.429772273180889997e+01,5.274092243208639985e+01,4.151382491284670095e+02
3.175000000000000000e+01,1.436506754980289990e+01,5.190404462560290000e+01,4.156303953841509724e+02
3.200000000000000000e+01,1.444163668758709917e+01,5.109787101286470090e+01,4.155104194843199821e+02
3.225000000000000000e+01,1.451427617830329986e+01,5.035946543181459845e+01,4.167625153182700046e+02
3.250000000000000000e+01,1.458891335833479985e+01,4.969016808524200002e+01,4.207435317505339754e+02
3.275000000000000000e+01,1.465805732523540073e+01,4.909960547950510090e+01,4.269034243617870175e+02
3.300000000000000000e+01,1.471759464468289913e+01,4.859215279454110004e+01,4.342633067355270100e+02
3.325000000000000000e+01,1.477176139312130054e+01,4.815102046126239799e+01,4.415170380405010064e+02
3.350000000000000000e+01,1.482170952164720035e+01,4.776648297000689780e+01,4.490228871127209800e+02
3.375000000000000000e+01,1.487172366966260029e+01,4.741553234988519705e+01,4.571674548101930213e+02
3.400000000000000000e+01,1.491558905971180060e+01,4.710839312900819920e+01,4.643952954171570013e+02
3.425000000000000000e+01,1.495653084159240009e+01,4.683449618899079780e+01,4.705010816572399790e+02
3.450000000000000000e+01,1.499693687451919999e+01,4.658651008408509853e+01,4.753871369246809877e+02
3.475000000000000000e+01,1.503021299168429969e+01,4.637596012038019921e+01,4.790732625292180273e+02
3.500000000000000000e+01,1.505638894363010039e+01,4.620253796584749750e+01,4.817475076490570132e+02
3.525000000000000000e+01,1.507558938204619992e+01,4.606556982834860037e+01,4.836166551012710215e+02
3.550000000000000000e+01,1.508805131506609953e+01,4.596380936652469984e+01,4.848802068342159828e+02
3.575000000000000000e+01,1.509412713121080074e+01,4.589541724635439834e+01,4.857182764728349866e+02
3.600000000000000000e+01,1.509426987795590058e+01,4.585801916517049648e+01,4.862831701883039841e+02
3.625000000000000000e+01,1.508900867078100028e+01,4.584881021380699906e+01,4.866946649196390240e+02
3.650000000000000000e+01,1.507892232948499966e+01,4.586468721311369734e+01,4.870399606574579821e+02
3.675000000000000000e+01,1.506501787596200082e+01,4.590124114509089992e+01,4.874577558280179801e+02
3.700000000000000000e+01,1.504994211861400011e+01,4.594937284277489908e+01,4.883896909398890216e+02
3.725000000000000000e+01,1.503178184256089978e+01,4.601303930970559719e+01,4.893525588337930117e+02
3.750000000000000000e+01,1.501107692476169930e+01,4.608929022352140237e+01,4.903451214581630211e+02
3.775000000000000000e+01,1.498833368474659977e+01,4.617900288987510038e+01,4.914103398659469804e+02
3.800000000000000000e+01,1.496238832322040047e+01,4.628374201143009969e+01,4.926844242834940246e+02
3.825000000000000000e+01,1.493399691139959984e+01,4.639746010155530342e+01,4.940476676817759767e+02
3.850000000000000000e+01,1.490390863293490042e+01,4.651525027368489873e+01,4.953980073158859909e+02
3.875000000000000000e+01,1.487272798094359949e+01,4.663352224710150296e+01,4.966664373969350095e+02
3.900000000000000000e+01,1.484104105996489942e+01,4.674973675713520294e+01,4.978309037684689997e+02
3.925000000000000000e+01,1.480921396176609939e+01,4.686210262766940104e+01,4.988784311868470240e+02
3.950000000000000000e+01,1.477751314299460006e+01,4.696951167047379982e+01,4.998117211690559998e+02
3.975000000000000000e+01,1.474612944920309943e+01,4.707138784012759913e+01,5.006454501081170179e+02
4.000000000000000000e+01,1.471560114698390009e+01,4.716821345843509761e+01,5.016295581524349814e+02
4.025000000000000000e+01,1.468624963017970053e+01,4.725940086396489903e+01,5.028267548586779867e+02
4.050000000000000000e+01,1.465824985744630027e+01,4.734420414293730062e+01,5.042008975766430012e+02
4.075000000000000000e+01,1.463171145951420016e+01,4.742231181487149883e+01,5.057091667207370165e+02
4.100000000000000000e+01,1.460667158844860047e+01,4.749381628433369684e+01,5.073098965002050136e+02
4.125000000000000000e+01,1.458309934197639990e+01,4.755914352417750024e+01,5.089666720692550257e+02
4.150000000000000000e+01,1.456090594408759920e+01,4.761897604845439957e+01,5.106503982531149859e+02
4.175000000000000000e+01,1.453995768869999949e+01,4.767417520929100050e+01,5.123398923570759962e+02
4.200000000000000000e+01,1.452008955709639970e+01,4.772570764371270258e+01,5.140214752750739535e+02
4.225000000000000000e+01,1.450111813714470088e+01,4.777457952332130020e+01,5.156879548204400407e+02
4.250000000000000000e+01,1.448262569722879967e+01,4.782228650002429760e+01,5.173625206967509484e+02
4.275000000000000000e+01,1.446435360500749923e+01,4.786996427290969791e+01,5.190400814165579959e+02
4.300000000000000000e+01,1.444613498163460008e+01,4.791853928083600067e+01,5.207047109265449762e+02
4.325000000000000000e+01,1.442778588463800027e+01,4.796893856966350000e+01,5.223494662781560010e+02
4.350000000000000000e+01,1.440898965363800066e+01,4.802210027545960003e+01,5.239228938943040248e+02
4.375000000000000000e+01,1.438951618708609992e+01,4.807897610298820013e+01,5.253874490627019895e+02
4.400000000000000000e+01,1.437075724630959961e+01,4.813575346733180282e+01,5.266506405502060488e+02
4.425000000000000000e+01,1.435127491376199949e+01,4.819720114992190219e+01,5.277904924320330338e+02
4.450000000000000000e+01,1.433075652674239997e+01,4.826450826374539815e+01,5.288261470173860062e+02
4.475000000000000000e+01,1.430906034536639915e+01,4.833823600273230170e+01,5.297713812825560353e+02
4.500000000000000000e+01,1.428606842092309925e+01,4.841878300799019996e+01,5.306415216096770564e+02
4.525000000000000000e+01,1.426168937345140009e+01,4.850638922748880333e+01,5.314519006666829455e+02
4.550000000000000000e+01,1.423585867534509930e+01,4.860114772032240182e+01,5.322167436858369456e+02
4.575000000000000000e+01,1.420853714263349943e+01,4.870302211910740198e+01,5.329484623844530233e+02
4.600000000000000000e+01,1.417979285276370049e+01,4.881158306108839895e+01,5.336375954901729983e+02
4.625000000000000000e+01,1.414979282962329954e+01,4.892614141746950196e+01,5.342618515472699983e+02
4.650000000000000000e+01,1.411862894076389985e+01,4.904636176007829818e+01,5.348285535125869501e+02
4.675000000000000000e+01,1.408639088615639956e+01,4.917183478617850056e+01,5.353420247026749621e+02
4.700000000000000000e+01,1.405316448047789990e+01,4.930212152002579984e+01,5.358049120053740353e+02
4.725000000000000000e+01,1.401902963953109982e+01,4.943678256884510347e+01,5.362191423854640107e+02
4.750000000000000000e+01,1.398405921122530060e+01,4.957539807869299864e+01,5.365865122765790147e+02
4.775000000000000000e+01,1.394890826216190050e+01,4.971622839752809853e+01,5.369010017453499586e+02
4.800000000000000000e+01,1.391426470882730015e+01,4.985710974293599662e+01,5.371522818775109727e+02
4.825000000000000000e+01,1.388022652522900025e+01,4.999796559848820010e+01,5.373280025429510260e+02
4.850000000000000000e+01,1.384732942807410083e+01,5.013728944955759914e+01,5.374248816152030486e+02
4.875000000000000000e+01,1.381466847477259918e+01,5.027631990966430209e+01,5.374228163038169441e+02
4.900000000000000000e+01,1.378228298323599965e+01,5.041468256403040016e+01,5.373201624510979855e+02
4.925000000000000000e+01,1.374833761345439953e+01,5.055843555238480036e+01,5.373223733527549939e+02
4.950000000000000000e+01,1.370842428152040071e+01,5.072299628520580228e+01,5.379014073538660341e+02
